Time(s),Voltage(V),Current(A),OpticalSignal
0.000000,-0.010376,-0.011566,
0.010000,-0.010529,-0.011597,
0.020000,-0.010223,-0.011292,
0.030000,-0.009918,-0.010986,
0.040000,-0.009613,-0.010651,
0.050000,-0.009308,-0.010315,
0.060000,-0.009003,-0.009918,
0.070000,-0.008545,-0.009583,
0.080000,-0.008392,-0.009277,
0.090000,-0.008087,-0.008972,
0.100000,-0.007782,-0.008606,
0.110000,-0.007477,-0.008240,
0.120000,-0.007172,-0.007935,
0.130000,-0.006866,-0.007629,
0.140000,-0.006561,-0.007263,
0.150000,-0.006256,-0.006927,
0.160000,-0.005951,-0.006622,
0.170000,-0.005646,-0.006287,
0.180000,-0.005341,-0.005951,
0.190000,-0.005035,-0.005615,
0.200000,-0.004730,-0.005249,
0.210000,-0.004425,-0.004944,
0.220000,-0.004120,-0.004608,
0.230000,-0.003815,-0.004272,
0.240000,-0.003510,-0.003906,
0.250000,-0.003204,-0.003540,
0.260000,-0.003052,-0.003418,
0.270000,-0.002747,-0.003082,
0.280000,-0.002441,-0.002808,
0.290000,-0.002136,-0.002441,
0.300000,-0.001831,-0.002106,
0.310000,-0.001526,-0.001740,
0.320000,-0.001221,-0.001434,
0.330000,-0.000916,-0.001068,
0.340000,-0.000610,-0.000732,
0.350000,-0.000305,-0.000397,
0.360000,0.000000,-0.000061,
0.370000,0.000305,0.000275,
0.380000,0.000610,0.000580,
0.390000,0.000916,0.000916,
0.400000,0.001221,0.001251,
0.410000,0.001373,0.001587,
0.420000,0.001678,0.001892,
0.430000,0.002136,0.002258,
0.440000,0.002441,0.002625,
0.450000,0.002747,0.002960,
0.460000,0.003052,0.003265,
0.470000,0.003357,0.003601,
0.480000,0.003662,0.003937,
0.490000,0.003967,0.004303,
0.500000,0.004272,0.004669,
0.510000,0.004425,0.004791,
0.520000,0.004730,0.005127,
0.530000,0.005035,0.005432,
0.540000,0.005341,0.005798,
0.550000,0.005493,0.006104,
0.560000,0.005951,0.006470,
0.570000,0.006256,0.006775,
0.580000,0.006561,0.007141,
0.590000,0.006866,0.007507,
0.600000,0.007172,0.007813,
0.610000,0.007324,0.008118,
0.620000,0.007629,0.008484,
0.630000,0.007935,0.008789,
0.640000,0.008240,0.009094,
0.650000,0.008698,0.009491,
0.660000,0.008850,0.009796,
0.670000,0.009155,0.010101,
0.680000,0.009460,0.010437,
0.690000,0.009766,0.010803,
0.700000,0.010071,0.011108,
0.710000,0.010376,0.011444,
0.720000,0.010834,0.011810,
0.730000,0.010986,0.012146,
0.740000,0.011444,0.012482,
0.750000,0.011749,0.012878,
0.760000,0.011902,0.013000,
0.770000,0.012054,0.013306,
0.780000,0.012360,0.013641,
0.790000,0.012665,0.014008,
0.800000,0.012970,0.014343,
0.810000,0.013275,0.014679,
0.820000,0.013733,0.015015,
0.830000,0.013885,0.015350,
0.840000,0.014191,0.015656,
0.850000,0.014496,0.016022,
0.860000,0.014954,0.016357,
0.870000,0.015106,0.016663,
0.880000,0.015411,0.017029,
0.890000,0.015869,0.017365,
0.900000,0.016022,0.017700,
0.910000,0.016327,0.018066,
0.920000,0.016632,0.018372,
0.930000,0.016937,0.018707,
0.940000,0.017242,0.019043,
0.950000,0.017700,0.019409,
0.960000,0.017853,0.019714,
0.970000,0.018311,0.020081,
0.980000,0.018463,0.020355,
0.990000,0.018768,0.020721,
1.000000,0.019073,0.021088,
1.010000,0.019226,0.021210,
1.020000,0.019531,0.021545,
1.030000,0.019836,0.021881,
1.040000,0.020142,0.022217,
1.050000,0.020447,0.022552,
1.060000,0.020905,0.022919,
1.070000,0.021057,0.023254,
1.080000,0.021362,0.023560,
1.090000,0.021667,0.023895,
1.100000,0.021973,0.024261,
1.110000,0.022278,0.024567,
1.120000,0.022583,0.024933,
1.130000,0.022888,0.025208,
1.140000,0.023193,0.025574,
1.150000,0.023499,0.025879,
1.160000,0.023804,0.026245,
1.170000,0.024109,0.026581,
1.180000,0.024414,0.026917,
1.190000,0.024719,0.027252,
1.200000,0.025024,0.027557,
1.210000,0.025330,0.027924,
1.220000,0.025635,0.028290,
1.230000,0.025940,0.028625,
1.240000,0.026245,0.028931,
1.250000,0.026550,0.029327,
1.260000,0.026703,0.029449,
1.270000,0.027008,0.029816,
1.280000,0.027313,0.030090,
1.290000,0.027618,0.030426,
1.300000,0.027924,0.030792,
1.310000,0.028229,0.031128,
1.320000,0.028534,0.031433,
1.330000,0.028839,0.031769,
1.340000,0.029144,0.032135,
1.350000,0.029449,0.032440,
1.360000,0.029755,0.032806,
1.370000,0.030060,0.033112,
1.380000,0.030365,0.033478,
1.390000,0.030518,0.033783,
1.400000,0.030975,0.034119,
1.410000,0.031281,0.034485,
1.420000,0.031586,0.034790,
1.430000,0.031891,0.035156,
1.440000,0.032196,0.035431,
1.450000,0.032349,0.035767,
1.460000,0.032806,0.036133,
1.470000,0.033112,0.036469,
1.480000,0.033417,0.036804,
1.490000,0.033722,0.037140,
1.500000,0.034027,0.037567,
1.510000,0.034180,0.037628,
1.520000,0.034485,0.037964,
1.530000,0.034790,0.038300,
1.540000,0.035095,0.038635,
1.550000,0.035553,0.039185,
1.560000,0.035858,0.039551,
1.570000,0.036163,0.039856,
1.580000,0.036316,0.040131,
1.590000,0.036774,0.040497,
1.600000,0.037079,0.040833,
1.610000,0.037231,0.041138,
1.620000,0.037689,0.041504,
1.630000,0.037994,0.041840,
1.640000,0.038300,0.042206,
1.650000,0.038605,0.042542,
1.660000,0.038910,0.042847,
1.670000,0.039215,0.043182,
1.680000,0.039520,0.043518,
1.690000,0.039825,0.043823,
1.700000,0.040131,0.044189,
1.710000,0.040436,0.044525,
1.720000,0.040741,0.044861,
1.730000,0.041046,0.045197,
1.740000,0.041351,0.045532,
1.750000,0.041656,0.045898,
1.760000,0.041809,0.046051,
1.770000,0.042114,0.046356,
1.780000,0.042419,0.046753,
1.790000,0.042725,0.047028,
1.800000,0.043030,0.047394,
1.810000,0.043335,0.047760,
1.820000,0.043640,0.048065,
1.830000,0.043945,0.048370,
1.840000,0.044250,0.048737,
1.850000,0.044556,0.049103,
1.860000,0.044861,0.049408,
1.870000,0.045166,0.049744,
1.880000,0.045319,0.050018,
1.890000,0.045776,0.050415,
1.900000,0.045929,0.050720,
1.910000,0.046234,0.051056,
1.920000,0.046539,0.051392,
1.930000,0.046844,0.051727,
1.940000,0.047302,0.052124,
1.950000,0.047455,0.052368,
1.960000,0.047760,0.052765,
1.970000,0.048218,0.053070,
1.980000,0.048370,0.053406,
1.990000,0.048676,0.053772,
2.000000,0.049133,0.054169,
2.010000,0.049133,0.054260,
2.020000,0.049438,0.054565,
2.030000,0.049744,0.054932,
2.040000,0.050049,0.055267,
2.050000,0.050354,0.055603,
2.060000,0.050659,0.055908,
2.070000,0.050964,0.056244,
2.080000,0.051270,0.056610,
2.090000,0.051575,0.056976,
2.100000,0.051880,0.057281,
2.110000,0.052185,0.057587,
2.120000,0.052490,0.057953,
2.130000,0.052795,0.058289,
2.140000,0.053101,0.058563,
2.150000,0.053406,0.058960,
2.160000,0.053711,0.059296,
2.170000,0.054169,0.059662,
2.180000,0.054321,0.059937,
2.190000,0.054626,0.060272,
2.200000,0.054932,0.060638,
2.210000,0.055237,0.060974,
2.220000,0.055542,0.061310,
2.230000,0.055847,0.061646,
2.240000,0.056152,0.061981,
2.250000,0.056458,0.062347,
2.260000,0.056610,0.062469,
2.270000,0.056915,0.062836,
2.280000,0.057220,0.063141,
2.290000,0.057526,0.063477,
2.300000,0.057831,0.063782,
2.310000,0.058136,0.064178,
2.320000,0.058441,0.064484,
2.330000,0.058746,0.064850,
2.340000,0.059052,0.065155,
2.350000,0.059357,0.065491,
2.360000,0.059662,0.065826,
2.370000,0.059967,0.066193,
2.380000,0.060272,0.066528,
2.390000,0.060577,0.066864,
2.400000,0.060883,0.067169,
2.410000,0.061188,0.067505,
2.420000,0.061493,0.067841,
2.430000,0.061798,0.068207,
2.440000,0.062103,0.068512,
2.450000,0.062408,0.068817,
2.460000,0.062714,0.069214,
2.470000,0.063019,0.069519,
2.480000,0.063324,0.069855,
2.490000,0.063629,0.070190,
2.500000,0.063934,0.070587,
2.510000,0.064087,0.070709,
2.520000,0.064392,0.071014,
2.530000,0.064697,0.071411,
2.540000,0.065002,0.071686,
2.550000,0.065308,0.072052,
2.560000,0.065613,0.072357,
2.570000,0.065918,0.072723,
2.580000,0.066223,0.073059,
2.590000,0.066376,0.073364,
2.600000,0.066833,0.073730,
2.610000,0.067139,0.074066,
2.620000,0.067444,0.074432,
2.630000,0.067749,0.074707,
2.640000,0.068054,0.075073,
2.650000,0.068207,0.075348,
2.660000,0.068665,0.075745,
2.670000,0.068970,0.076050,
2.680000,0.069275,0.076416,
2.690000,0.069580,0.076721,
2.700000,0.069885,0.077026,
2.710000,0.070038,0.077393,
2.720000,0.070343,0.077728,
2.730000,0.070801,0.078094,
2.740000,0.071106,0.078430,
2.750000,0.071411,0.078827,
2.760000,0.071564,0.078949,
2.770000,0.071869,0.079254,
2.780000,0.072174,0.079590,
2.790000,0.072479,0.079926,
2.800000,0.072784,0.080231,
2.810000,0.073090,0.080597,
2.820000,0.073242,0.080933,
2.830000,0.073700,0.081268,
2.840000,0.074005,0.081635,
2.850000,0.074310,0.081940,
2.860000,0.074615,0.082306,
2.870000,0.074921,0.082581,
2.880000,0.075226,0.082977,
2.890000,0.075531,0.083313,
2.900000,0.075836,0.083649,
2.910000,0.076141,0.083984,
2.920000,0.076447,0.084290,
2.930000,0.076599,0.084656,
2.940000,0.077057,0.084991,
2.950000,0.077209,0.085297,
2.960000,0.077667,0.085663,
2.970000,0.077972,0.085999,
2.980000,0.078125,0.086304,
2.990000,0.078583,0.086670,
3.000000,0.078888,0.087036,
3.010000,0.079041,0.087097,
3.020000,0.079193,0.087463,
3.030000,0.079498,0.087830,
3.040000,0.079803,0.088165,
3.050000,0.080109,0.088501,
3.060000,0.080414,0.088776,
3.070000,0.080719,0.089142,
3.080000,0.081024,0.089478,
3.090000,0.081482,0.089966,
3.100000,0.081940,0.090332,
3.110000,0.082245,0.090698,
3.120000,0.082397,0.091003,
3.130000,0.082703,0.091339,
3.140000,0.083008,0.091644,
3.150000,0.083313,0.092010,
3.160000,0.083618,0.092346,
3.170000,0.084076,0.092712,
3.180000,0.084229,0.092987,
3.190000,0.084534,0.093323,
3.200000,0.084839,0.093658,
3.210000,0.085144,0.094025,
3.220000,0.085449,0.094330,
3.230000,0.085754,0.094666,
3.240000,0.086060,0.095032,
3.250000,0.086365,0.095398,
3.260000,0.086517,0.095490,
3.270000,0.086975,0.095856,
3.280000,0.087128,0.096161,
3.290000,0.087433,0.096497,
3.300000,0.087738,0.096863,
3.310000,0.088043,0.097198,
3.320000,0.088348,0.097534,
3.330000,0.088654,0.097839,
3.340000,0.088959,0.098206,
3.350000,0.089264,0.098541,
3.360000,0.089569,0.098877,
3.370000,0.089874,0.099213,
3.380000,0.090179,0.099518,
3.390000,0.090485,0.099884,
3.400000,0.090790,0.100220,
3.410000,0.090942,0.100525,
3.420000,0.091400,0.100922,
3.430000,0.091705,0.101196,
3.440000,0.092010,0.101563,
3.450000,0.092316,0.101868,
3.460000,0.092621,0.102203,
3.470000,0.092926,0.102539,
3.480000,0.093231,0.102875,
3.490000,0.093536,0.103210,
3.500000,0.093842,0.103607,
3.510000,0.093994,0.103699,
3.520000,0.094299,0.104095,
3.530000,0.094604,0.104401,
3.540000,0.094910,0.104767,
3.550000,0.095215,0.105103,
3.560000,0.095520,0.105408,
3.570000,0.095825,0.105743,
3.580000,0.096130,0.106079,
3.590000,0.096436,0.106415,
3.600000,0.096741,0.106750,
3.610000,0.097046,0.107086,
3.620000,0.097351,0.107452,
3.630000,0.097656,0.107758,
3.640000,0.097809,0.108093,
3.650000,0.098267,0.108429,
3.660000,0.098419,0.108734,
3.670000,0.098877,0.109100,
3.680000,0.099182,0.109436,
3.690000,0.099335,0.109741,
3.700000,0.099640,0.110107,
3.710000,0.100098,0.110474,
3.720000,0.100403,0.110809,
3.730000,0.100708,0.111145,
3.740000,0.101013,0.111481,
3.750000,0.101318,0.111847,
3.760000,0.101318,0.111908,
3.770000,0.101624,0.112274,
3.780000,0.102081,0.112610,
3.790000,0.102386,0.112946,
3.800000,0.102692,0.113342,
3.810000,0.102997,0.113617,
3.820000,0.103302,0.113953,
3.830000,0.103607,0.114319,
3.840000,0.103912,0.114655,
3.850000,0.104218,0.114990,
3.860000,0.104523,0.115326,
3.870000,0.104828,0.115662,
3.880000,0.104980,0.115997,
3.890000,0.105438,0.116333,
3.900000,0.105591,0.116669,
3.910000,0.105896,0.116974,
3.920000,0.106201,0.117340,
3.930000,0.106506,0.117645,
3.940000,0.106812,0.117981,
3.950000,0.107117,0.118347,
3.960000,0.107574,0.118652,
3.970000,0.107880,0.119019,
3.980000,0.108032,0.119324,
3.990000,0.108337,0.119659,
4.000000,0.108643,0.120026,
4.010000,0.108948,0.120209,
4.020000,0.109253,0.120544,
4.030000,0.109406,0.120819,
4.040000,0.109711,0.121185,
4.050000,0.110168,0.121582,
4.060000,0.110474,0.121857,
4.070000,0.110626,0.122192,
4.080000,0.110931,0.122528,
4.090000,0.111389,0.122864,
4.100000,0.111694,0.123199,
4.110000,0.111847,0.123505,
4.120000,0.112152,0.123840,
4.130000,0.112457,0.124237,
4.140000,0.112915,0.124512,
4.150000,0.113068,0.124847,
4.160000,0.113373,0.125183,
4.170000,0.113678,0.125580,
4.180000,0.113983,0.125854,
4.190000,0.114288,0.126190,
4.200000,0.114594,0.126556,
4.210000,0.114899,0.126862,
4.220000,0.115204,0.127197,
4.230000,0.115509,0.127533,
4.240000,0.115814,0.127899,
4.250000,0.116119,0.128265,
4.260000,0.116272,0.128387,
4.270000,0.116577,0.128723,
4.280000,0.116882,0.129089,
4.290000,0.117188,0.129395,
4.300000,0.117493,0.129730,
4.310000,0.117798,0.130066,
4.320000,0.118103,0.130402,
4.330000,0.118408,0.130768,
4.340000,0.118713,0.131134,
4.350000,0.119019,0.131378,
4.360000,0.119324,0.131744,
4.370000,0.119781,0.132141,
4.380000,0.119934,0.132446,
4.390000,0.120239,0.132721,
4.400000,0.120544,0.133087,
4.410000,0.120850,0.133392,
4.420000,0.121155,0.133789,
4.430000,0.121460,0.134064,
4.440000,0.121765,0.134399,
4.450000,0.122070,0.134766,
4.460000,0.122375,0.135132,
4.470000,0.122681,0.135406,
4.480000,0.122986,0.135773,
4.490000,0.123291,0.136108,
4.500000,0.123749,0.136505,
4.510000,0.123749,0.136597,
4.520000,0.124054,0.136932,
4.530000,0.124359,0.137268,
4.540000,0.124664,0.137604,
4.550000,0.124969,0.137939,
4.560000,0.125275,0.138275,
4.570000,0.125580,0.138611,
4.580000,0.125885,0.138916,
4.590000,0.126190,0.139282,
4.600000,0.126495,0.139618,
4.610000,0.126801,0.139954,
4.620000,0.127106,0.140289,
4.630000,0.127411,0.140656,
4.640000,0.127869,0.141113,
4.650000,0.128174,0.141479,
4.660000,0.128479,0.141815,
4.670000,0.128784,0.142181,
4.680000,0.129089,0.142487,
4.690000,0.129395,0.142792,
4.700000,0.129700,0.143158,
4.710000,0.130005,0.143463,
4.720000,0.130310,0.143860,
4.730000,0.130615,0.144165,
4.740000,0.130920,0.144470,
4.750000,0.131226,0.144836,
4.760000,0.131378,0.144958,
4.770000,0.131683,0.145325,
4.780000,0.131989,0.145660,
4.790000,0.132294,0.146027,
4.800000,0.132599,0.146332,
4.810000,0.132904,0.146667,
4.820000,0.133209,0.147034,
4.830000,0.133514,0.147339,
4.840000,0.133820,0.147705,
4.850000,0.134125,0.148041,
4.860000,0.134430,0.148346,
4.870000,0.134735,0.148682,
4.880000,0.135040,0.149017,
4.890000,0.135193,0.149323,
4.900000,0.135651,0.149658,
4.910000,0.135956,0.150024,
4.920000,0.136108,0.150330,
4.930000,0.136566,0.150696,
4.940000,0.136871,0.151031,
4.950000,0.137177,0.151367,
4.960000,0.137482,0.151703,
4.970000,0.137634,0.152039,
4.980000,0.138092,0.152344,
4.990000,0.138397,0.152710,
5.000000,0.138702,0.153076,
5.010000,0.138855,0.153198,
5.020000,0.139160,0.153534,
5.030000,0.139465,0.153900,
5.040000,0.139771,0.154236,
5.050000,0.140076,0.154510,
5.060000,0.140228,0.154877,
5.070000,0.140533,0.155212,
5.080000,0.140839,0.155548,
5.090000,0.141144,0.155853,
5.100000,0.141602,0.156219,
5.110000,0.141907,0.156586,
5.120000,0.142212,0.156891,
5.130000,0.142517,0.157257,
5.140000,0.142822,0.157593,
5.150000,0.143127,0.157898,
5.160000,0.143433,0.158264,
5.170000,0.143738,0.158569,
5.180000,0.144043,0.158905,
5.190000,0.144196,0.159241,
5.200000,0.144501,0.159546,
5.210000,0.144806,0.159882,
5.220000,0.145111,0.160217,
5.230000,0.145569,0.160583,
5.240000,0.145721,0.160950,
5.250000,0.146027,0.161316,
5.260000,0.146179,0.161438,
5.270000,0.146637,0.161743,
5.280000,0.146942,0.162140,
5.290000,0.147095,0.162415,
5.300000,0.147552,0.162781,
5.310000,0.147858,0.163147,
5.320000,0.148010,0.163422,
5.330000,0.148468,0.163788,
5.340000,0.148621,0.164124,
5.350000,0.149078,0.164490,
5.360000,0.149231,0.164795,
5.370000,0.149536,0.165100,
5.380000,0.149841,0.165466,
5.390000,0.150146,0.165771,
5.400000,0.150452,0.166138,
5.410000,0.150909,0.166504,
5.420000,0.151062,0.166809,
5.430000,0.151367,0.167145,
5.440000,0.151672,0.167480,
5.450000,0.151978,0.167816,
5.460000,0.152283,0.168182,
5.470000,0.152588,0.168457,
5.480000,0.153046,0.168823,
5.490000,0.153198,0.169128,
5.500000,0.153503,0.169525,
5.510000,0.153656,0.169678,
5.520000,0.153961,0.169983,
5.530000,0.154266,0.170349,
5.540000,0.154572,0.170624,
5.550000,0.154877,0.171021,
5.560000,0.155182,0.171326,
5.570000,0.155487,0.171661,
5.580000,0.155792,0.171936,
5.590000,0.156097,0.172333,
5.600000,0.156403,0.172668,
5.610000,0.156860,0.173004,
5.620000,0.157013,0.173309,
5.630000,0.157318,0.173706,
5.640000,0.157623,0.174011,
5.650000,0.157928,0.174316,
5.660000,0.158386,0.174713,
5.670000,0.158539,0.175018,
5.680000,0.158844,0.175354,
5.690000,0.159149,0.175720,
5.700000,0.159454,0.176025,
5.710000,0.159760,0.176361,
5.720000,0.160065,0.176666,
5.730000,0.160370,0.177032,
5.740000,0.160675,0.177399,
5.750000,0.160980,0.177734,
5.760000,0.161133,0.177887,
5.770000,0.161438,0.178253,
5.780000,0.161743,0.178558,
5.790000,0.162048,0.178925,
5.800000,0.162354,0.179260,
5.810000,0.162659,0.179535,
5.820000,0.162964,0.179901,
5.830000,0.163269,0.180237,
5.840000,0.163574,0.180542,
5.850000,0.163879,0.180939,
5.860000,0.164185,0.181274,
5.870000,0.164490,0.181580,
5.880000,0.164795,0.181885,
5.890000,0.165100,0.182220,
5.900000,0.165405,0.182587,
5.910000,0.165710,0.182892,
5.920000,0.166016,0.183197,
5.930000,0.166321,0.183563,
5.940000,0.166626,0.183899,
5.950000,0.166931,0.184204,
5.960000,0.167236,0.184601,
5.970000,0.167542,0.184967,
5.980000,0.167847,0.185211,
5.990000,0.168152,0.185577,
6.000000,0.168457,0.185944,
6.010000,0.168610,0.186066,
6.020000,0.168915,0.186432,
6.030000,0.169220,0.186737,
6.040000,0.169525,0.187103,
6.050000,0.169830,0.187408,
6.060000,0.170135,0.187775,
6.070000,0.170441,0.188080,
6.080000,0.170746,0.188416,
6.090000,0.171051,0.188782,
6.100000,0.171356,0.189148,
6.110000,0.171661,0.189453,
6.120000,0.171967,0.189819,
6.130000,0.172272,0.190094,
6.140000,0.172577,0.190460,
6.150000,0.172882,0.190796,
6.160000,0.173187,0.191132,
6.170000,0.173492,0.191437,
6.180000,0.173950,0.191956,
6.190000,0.174255,0.192322,
6.200000,0.174561,0.192627,
6.210000,0.174866,0.192963,
6.220000,0.175171,0.193298,
6.230000,0.175476,0.193665,
6.240000,0.175781,0.193970,
6.250000,0.176086,0.194366,
6.260000,0.176239,0.194489,
6.270000,0.176544,0.194794,
6.280000,0.176849,0.195160,
6.290000,0.177155,0.195465,
6.300000,0.177460,0.195831,
6.310000,0.177765,0.196167,
6.320000,0.178070,0.196533,
6.330000,0.178375,0.196838,
6.340000,0.178680,0.197205,
6.350000,0.178833,0.197479,
6.360000,0.179291,0.197845,
6.370000,0.179596,0.198181,
6.380000,0.179901,0.198517,
6.390000,0.180054,0.198822,
6.400000,0.180511,0.199188,
6.410000,0.180817,0.199493,
6.420000,0.181122,0.199860,
6.430000,0.181427,0.200165,
6.440000,0.181732,0.200531,
6.450000,0.182037,0.200867,
6.460000,0.182190,0.201172,
6.470000,0.182495,0.201508,
6.480000,0.182800,0.201843,
6.490000,0.183258,0.202209,
6.500000,0.183563,0.202545,
6.510000,0.183563,0.202667,
6.520000,0.183868,0.203003,
6.530000,0.184174,0.203369,
6.540000,0.184479,0.203674,
6.550000,0.184784,0.204010,
6.560000,0.185089,0.204346,
6.570000,0.185394,0.204712,
6.580000,0.185699,0.205017,
6.590000,0.186005,0.205353,
6.600000,0.186310,0.205688,
6.610000,0.186615,0.206055,
6.620000,0.186920,0.206360,
6.630000,0.187225,0.206726,
6.640000,0.187683,0.207092,
6.650000,0.187836,0.207367,
6.660000,0.188141,0.207733,
6.670000,0.188446,0.208069,
6.680000,0.188751,0.208405,
6.690000,0.189056,0.208771,
6.700000,0.189362,0.209076,
6.710000,0.189667,0.209351,
6.720000,0.189972,0.209747,
6.730000,0.190277,0.210114,
6.740000,0.190582,0.210388,
6.750000,0.191040,0.210846,
6.760000,0.191040,0.210938,
6.770000,0.191345,0.211273,
6.780000,0.191650,0.211578,
6.790000,0.191956,0.211914,
6.800000,0.192261,0.212280,
6.810000,0.192566,0.212616,
6.820000,0.193024,0.212982,
6.830000,0.193176,0.213257,
6.840000,0.193481,0.213562,
6.850000,0.193787,0.213959,
6.860000,0.194092,0.214264,
6.870000,0.194550,0.214630,
6.880000,0.194702,0.214935,
6.890000,0.195007,0.215271,
6.900000,0.195313,0.215607,
6.910000,0.195770,0.215973,
6.920000,0.195923,0.216278,
6.930000,0.196228,0.216614,
6.940000,0.196533,0.216980,
6.950000,0.196838,0.217285,
6.960000,0.197144,0.217590,
6.970000,0.197449,0.217957,
6.980000,0.197754,0.218292,
6.990000,0.198059,0.218628,
7.000000,0.198364,0.218964,
7.010000,0.198517,0.219086,
7.020000,0.198822,0.219452,
7.030000,0.199127,0.219788,
7.040000,0.199432,0.220154,
7.050000,0.199738,0.220490,
7.060000,0.200043,0.220795,
7.070000,0.200500,0.221161,
7.080000,0.200806,0.221497,
7.090000,0.201111,0.221832,
