Time(s),Voltage(V),Current(A),OpticalSignal
0.000000,-0.010071,-0.011292,
0.010000,-0.010223,-0.011368,
0.020000,-0.009918,-0.011032,
0.030000,-0.009613,-0.010666,
0.040000,-0.009308,-0.010345,
0.050000,-0.009003,-0.009995,
0.060000,-0.008698,-0.009644,
0.070000,-0.008240,-0.009293,
0.080000,-0.008087,-0.008957,
0.090000,-0.007782,-0.008636,
0.100000,-0.007477,-0.008316,
0.110000,-0.007172,-0.007965,
0.120000,-0.006866,-0.007629,
0.130000,-0.006561,-0.007309,
0.140000,-0.006256,-0.006943,
0.150000,-0.005951,-0.006592,
0.160000,-0.005646,-0.006271,
0.170000,-0.005341,-0.005905,
0.180000,-0.005035,-0.005569,
0.190000,-0.004730,-0.005249,
0.200000,-0.004425,-0.004929,
0.210000,-0.004120,-0.004608,
0.220000,-0.003815,-0.004257,
0.230000,-0.003510,-0.003891,
0.240000,-0.003204,-0.003586,
0.250000,-0.002747,-0.003128,
0.260000,-0.002747,-0.003036,
0.270000,-0.002441,-0.002731,
0.280000,-0.002136,-0.002380,
0.290000,-0.001831,-0.001999,
0.300000,-0.001526,-0.001694,
0.310000,-0.001221,-0.001373,
0.320000,-0.000916,-0.001022,
0.330000,-0.000610,-0.000702,
0.340000,-0.000305,-0.000351,
0.350000,0.000000,0.000015,
0.360000,0.000305,0.000351,
0.370000,0.000610,0.000671,
0.380000,0.000916,0.001007,
0.390000,0.001221,0.001373,
0.400000,0.001526,0.001709,
0.410000,0.001831,0.002060,
0.420000,0.002136,0.002365,
0.430000,0.002441,0.002762,
0.440000,0.002747,0.003036,
0.450000,0.003052,0.003387,
0.460000,0.003357,0.003738,
0.470000,0.003662,0.004059,
0.480000,0.003967,0.004425,
0.490000,0.004272,0.004700,
0.500000,0.004578,0.005157,
0.510000,0.004730,0.005234,
0.520000,0.005035,0.005585,
0.530000,0.005341,0.005936,
0.540000,0.005646,0.006287,
0.550000,0.005951,0.006622,
0.560000,0.006256,0.006927,
0.570000,0.006561,0.007278,
0.580000,0.006866,0.007690,
0.590000,0.007172,0.007950,
0.600000,0.007477,0.008286,
0.610000,0.007782,0.008621,
0.620000,0.008087,0.009003,
0.630000,0.008392,0.009338,
0.640000,0.008698,0.009659,
0.650000,0.009003,0.010025,
0.660000,0.009308,0.010300,
0.670000,0.009613,0.010666,
0.680000,0.009918,0.010986,
0.690000,0.010223,0.011337,
0.700000,0.010529,0.011673,
0.710000,0.010681,0.011978,
0.720000,0.011139,0.012375,
0.730000,0.011444,0.012711,
0.740000,0.011749,0.013016,
0.750000,0.012054,0.013474,
0.760000,0.012207,0.013580,
0.770000,0.012512,0.013885,
0.780000,0.012817,0.014236,
0.790000,0.013123,0.014587,
0.800000,0.013275,0.014877,
0.810000,0.013580,0.015213,
0.820000,0.014038,0.015594,
0.830000,0.014191,0.015900,
0.840000,0.014648,0.016281,
0.850000,0.014954,0.016602,
0.860000,0.015259,0.016937,
0.870000,0.015564,0.017273,
0.880000,0.015717,0.017563,
0.890000,0.016174,0.017944,
0.900000,0.016479,0.018265,
0.910000,0.016785,0.018661,
0.920000,0.017090,0.018967,
0.930000,0.017395,0.019318,
0.940000,0.017700,0.019653,
0.950000,0.017853,0.019943,
0.960000,0.018311,0.020325,
0.970000,0.018463,0.020645,
0.980000,0.018768,0.020996,
0.990000,0.019226,0.021347,
1.000000,0.019531,0.021729,
1.010000,0.019684,0.021866,
1.020000,0.019836,0.022217,
1.030000,0.020294,0.022491,
1.040000,0.020599,0.022858,
1.050000,0.020752,0.023178,
1.060000,0.021210,0.023560,
1.070000,0.021515,0.023880,
1.080000,0.021667,0.024216,
1.090000,0.022125,0.024567,
1.100000,0.022278,0.024872,
1.110000,0.022583,0.025223,
1.120000,0.022888,0.025574,
1.130000,0.023193,0.025894,
1.140000,0.023651,0.026260,
1.150000,0.023804,0.026566,
1.160000,0.024109,0.026871,
1.170000,0.024414,0.027267,
1.180000,0.024719,0.027603,
1.190000,0.025024,0.027939,
1.200000,0.025330,0.028290,
1.210000,0.025635,0.028625,
1.220000,0.025940,0.028931,
1.230000,0.026245,0.029297,
1.240000,0.026550,0.029633,
1.250000,0.027008,0.030060,
1.260000,0.027008,0.030151,
1.270000,0.027313,0.030502,
1.280000,0.027618,0.030823,
1.290000,0.027924,0.031128,
1.300000,0.028229,0.031494,
1.310000,0.028534,0.031845,
1.320000,0.028839,0.032166,
1.330000,0.029144,0.032486,
1.340000,0.029449,0.032837,
1.350000,0.029755,0.033173,
1.360000,0.030060,0.033539,
1.370000,0.030365,0.033844,
1.380000,0.030670,0.034195,
1.390000,0.030975,0.034561,
1.400000,0.031281,0.034866,
1.410000,0.031586,0.035187,
1.420000,0.031891,0.035538,
1.430000,0.032196,0.035873,
1.440000,0.032501,0.036255,
1.450000,0.032806,0.036560,
1.460000,0.033112,0.036896,
1.470000,0.033417,0.037231,
1.480000,0.033722,0.037598,
1.490000,0.034027,0.037964,
1.500000,0.034332,0.038345,
1.510000,0.034485,0.038406,
1.520000,0.034637,0.038712,
1.530000,0.035095,0.039093,
1.540000,0.035400,0.039383,
1.550000,0.035858,0.039932,
1.560000,0.036163,0.040298,
1.570000,0.036469,0.040619,
1.580000,0.036774,0.040955,
1.590000,0.037079,0.041290,
1.600000,0.037384,0.041641,
1.610000,0.037689,0.041962,
1.620000,0.037994,0.042297,
1.630000,0.038300,0.042664,
1.640000,0.038452,0.042969,
1.650000,0.038910,0.043350,
1.660000,0.039063,0.043686,
1.670000,0.039520,0.044037,
1.680000,0.039673,0.044327,
1.690000,0.039978,0.044693,
1.700000,0.040283,0.045013,
1.710000,0.040588,0.045349,
1.720000,0.041046,0.045700,
1.730000,0.041351,0.046005,
1.740000,0.041656,0.046387,
1.750000,0.041962,0.046768,
1.760000,0.042114,0.046875,
1.770000,0.042419,0.047226,
1.780000,0.042725,0.047562,
1.790000,0.043030,0.047928,
1.800000,0.043335,0.048248,
1.810000,0.043640,0.048599,
1.820000,0.043793,0.048889,
1.830000,0.044250,0.049255,
1.840000,0.044556,0.049622,
1.850000,0.044861,0.049911,
1.860000,0.045166,0.050278,
1.870000,0.045319,0.050598,
1.880000,0.045624,0.050949,
1.890000,0.046082,0.051285,
1.900000,0.046234,0.051605,
1.910000,0.046539,0.051941,
1.920000,0.046844,0.052292,
1.930000,0.047150,0.052612,
1.940000,0.047455,0.052933,
1.950000,0.047760,0.053299,
1.960000,0.048065,0.053650,
1.970000,0.048370,0.053970,
1.980000,0.048676,0.054321,
1.990000,0.048981,0.054688,
2.000000,0.049286,0.055023,
2.010000,0.049438,0.055130,
2.020000,0.049744,0.055496,
2.030000,0.050049,0.055832,
2.040000,0.050354,0.056198,
2.050000,0.050659,0.056503,
2.060000,0.051117,0.056885,
2.070000,0.051270,0.057175,
2.080000,0.051727,0.057571,
2.090000,0.051880,0.057846,
2.100000,0.052185,0.058243,
2.110000,0.052490,0.058533,
2.120000,0.052948,0.058929,
2.130000,0.053101,0.059235,
2.140000,0.053558,0.059601,
2.150000,0.053711,0.059937,
2.160000,0.054169,0.060272,
2.170000,0.054321,0.060608,
2.180000,0.054626,0.060913,
2.190000,0.054932,0.061279,
2.200000,0.055389,0.061646,
2.210000,0.055542,0.061966,
2.220000,0.055847,0.062286,
2.230000,0.056152,0.062653,
2.240000,0.056458,0.062988,
2.250000,0.056915,0.063385,
2.260000,0.056915,0.063461,
2.270000,0.057220,0.063812,
2.280000,0.057526,0.064117,
2.290000,0.057831,0.064499,
2.300000,0.058136,0.064835,
2.310000,0.058441,0.065125,
2.320000,0.058746,0.065475,
2.330000,0.059052,0.065842,
2.340000,0.059357,0.066147,
2.350000,0.059662,0.066528,
2.360000,0.059967,0.066879,
2.370000,0.060272,0.067230,
2.380000,0.060577,0.067566,
2.390000,0.060883,0.067886,
2.400000,0.061188,0.068237,
2.410000,0.061493,0.068573,
2.420000,0.061798,0.068909,
2.430000,0.062103,0.069244,
2.440000,0.062408,0.069580,
2.450000,0.062714,0.069916,
2.460000,0.063019,0.070251,
2.470000,0.063324,0.070602,
2.480000,0.063629,0.070938,
2.490000,0.063934,0.071228,
2.500000,0.064240,0.071671,
2.510000,0.064392,0.071777,
2.520000,0.064697,0.072128,
2.530000,0.065002,0.072433,
2.540000,0.065308,0.072784,
2.550000,0.065613,0.073151,
2.560000,0.065918,0.073502,
2.570000,0.066223,0.073761,
2.580000,0.066528,0.074112,
2.590000,0.066833,0.074478,
2.600000,0.067139,0.074814,
2.610000,0.067444,0.075165,
2.620000,0.067749,0.075516,
2.630000,0.068054,0.075851,
2.640000,0.068359,0.076187,
2.650000,0.068665,0.076508,
2.660000,0.068970,0.076843,
2.670000,0.069275,0.077194,
2.680000,0.069580,0.077560,
2.690000,0.069885,0.077866,
2.700000,0.070190,0.078232,
2.710000,0.070496,0.078537,
2.720000,0.070801,0.078857,
2.730000,0.070953,0.079208,
2.740000,0.071411,0.079559,
2.750000,0.071716,0.079941,
2.760000,0.071869,0.080063,
2.770000,0.072174,0.080429,
2.780000,0.072479,0.080765,
2.790000,0.072784,0.081100,
2.800000,0.073090,0.081482,
2.810000,0.073395,0.081787,
2.820000,0.073547,0.082092,
2.830000,0.074005,0.082458,
2.840000,0.074310,0.082825,
2.850000,0.074615,0.083130,
2.860000,0.074921,0.083496,
2.870000,0.075073,0.083801,
2.880000,0.075531,0.084137,
2.890000,0.075836,0.084473,
2.900000,0.076141,0.084808,
2.910000,0.076447,0.085159,
2.920000,0.076752,0.085526,
2.930000,0.076904,0.085800,
2.940000,0.077362,0.086212,
2.950000,0.077667,0.086517,
2.960000,0.077972,0.086884,
2.970000,0.078278,0.087204,
2.980000,0.078583,0.087555,
2.990000,0.078888,0.087860,
3.000000,0.079193,0.088287,
3.010000,0.079346,0.088394,
3.020000,0.079651,0.088715,
3.030000,0.079956,0.089035,
3.040000,0.080261,0.089386,
3.050000,0.080414,0.089722,
3.060000,0.080872,0.090088,
3.070000,0.081024,0.090408,
3.080000,0.081482,0.090775,
3.090000,0.081940,0.091263,
3.100000,0.082245,0.091614,
3.110000,0.082397,0.091934,
3.120000,0.082855,0.092300,
3.130000,0.083160,0.092621,
3.140000,0.083313,0.092972,
3.150000,0.083618,0.093307,
3.160000,0.084076,0.093658,
3.170000,0.084381,0.094009,
3.180000,0.084534,0.094330,
3.190000,0.084991,0.094696,
3.200000,0.085144,0.095001,
3.210000,0.085449,0.095337,
3.220000,0.085754,0.095688,
3.230000,0.086060,0.096008,
3.240000,0.086365,0.096359,
3.250000,0.086823,0.096756,
3.260000,0.086823,0.096848,
3.270000,0.087128,0.097198,
3.280000,0.087433,0.097595,
3.290000,0.087738,0.097839,
3.300000,0.088043,0.098221,
3.310000,0.088348,0.098557,
3.320000,0.088654,0.098907,
3.330000,0.088959,0.099197,
3.340000,0.089264,0.099548,
3.350000,0.089569,0.099930,
3.360000,0.089874,0.100266,
3.370000,0.090179,0.100586,
3.380000,0.090485,0.100922,
3.390000,0.090790,0.101257,
3.400000,0.091095,0.101608,
3.410000,0.091400,0.101929,
3.420000,0.091705,0.102264,
3.430000,0.092010,0.102585,
3.440000,0.092316,0.102951,
3.450000,0.092621,0.103302,
3.460000,0.092926,0.103653,
3.470000,0.093231,0.103989,
3.480000,0.093536,0.104324,
3.490000,0.093842,0.104675,
3.500000,0.094147,0.105042,
3.510000,0.094299,0.105133,
3.520000,0.094604,0.105515,
3.530000,0.094910,0.105835,
3.540000,0.095215,0.106171,
3.550000,0.095520,0.106491,
3.560000,0.095825,0.106842,
3.570000,0.096130,0.107193,
3.580000,0.096436,0.107544,
3.590000,0.096741,0.107895,
3.600000,0.097046,0.108231,
3.610000,0.097351,0.108521,
3.620000,0.097656,0.108902,
3.630000,0.097961,0.109253,
3.640000,0.098267,0.109558,
3.650000,0.098572,0.109879,
3.660000,0.098877,0.110245,
3.670000,0.099182,0.110565,
3.680000,0.099487,0.110901,
3.690000,0.099792,0.111267,
3.700000,0.100098,0.111603,
3.710000,0.100403,0.111938,
3.720000,0.100708,0.112244,
3.730000,0.101013,0.112610,
3.740000,0.101318,0.112976,
3.750000,0.101624,0.113327,
3.760000,0.101776,0.113464,
3.770000,0.102081,0.113785,
3.780000,0.102386,0.114151,
3.790000,0.102692,0.114487,
3.800000,0.102997,0.114807,
3.810000,0.103302,0.115158,
3.820000,0.103607,0.115463,
3.830000,0.103912,0.115814,
3.840000,0.104218,0.116165,
3.850000,0.104523,0.116455,
3.860000,0.104828,0.116852,
3.870000,0.105133,0.117203,
3.880000,0.105438,0.117554,
3.890000,0.105591,0.117859,
3.900000,0.106049,0.118210,
3.910000,0.106354,0.118530,
3.920000,0.106659,0.118927,
3.930000,0.106964,0.119217,
3.940000,0.107117,0.119537,
3.950000,0.107574,0.119873,
3.960000,0.107880,0.120209,
3.970000,0.108032,0.120544,
3.980000,0.108337,0.120880,
3.990000,0.108643,0.121201,
4.000000,0.109100,0.121628,
4.010000,0.109253,0.121750,
4.020000,0.109406,0.122101,
4.030000,0.109711,0.122421,
4.040000,0.110016,0.122772,
4.050000,0.110321,0.123062,
4.060000,0.110626,0.123428,
4.070000,0.111084,0.123779,
4.080000,0.111237,0.124084,
4.090000,0.111542,0.124451,
4.100000,0.112000,0.124817,
4.110000,0.112305,0.125122,
4.120000,0.112610,0.125473,
4.130000,0.112915,0.125854,
4.140000,0.113068,0.126144,
4.150000,0.113373,0.126465,
4.160000,0.113678,0.126816,
4.170000,0.113983,0.127121,
4.180000,0.114288,0.127472,
4.190000,0.114594,0.127808,
4.200000,0.114899,0.128159,
4.210000,0.115204,0.128494,
4.220000,0.115509,0.128830,
4.230000,0.115967,0.129181,
4.240000,0.116119,0.129486,
4.250000,0.116425,0.129913,
4.260000,0.116577,0.130020,
4.270000,0.116882,0.130371,
4.280000,0.117188,0.130707,
4.290000,0.117493,0.131073,
4.300000,0.117798,0.131378,
4.310000,0.118103,0.131699,
4.320000,0.118561,0.132065,
4.330000,0.118713,0.132401,
4.340000,0.119019,0.132721,
4.350000,0.119324,0.133087,
4.360000,0.119629,0.133408,
4.370000,0.119934,0.133713,
4.380000,0.120239,0.134094,
4.390000,0.120544,0.134430,
4.400000,0.120850,0.134766,
4.410000,0.121155,0.135117,
4.420000,0.121460,0.135452,
4.430000,0.121765,0.135757,
4.440000,0.122070,0.136154,
4.450000,0.122375,0.136429,
4.460000,0.122681,0.136810,
4.470000,0.122986,0.137115,
4.480000,0.123291,0.137466,
4.490000,0.123596,0.137817,
4.500000,0.123901,0.138199,
4.510000,0.124054,0.138321,
4.520000,0.124359,0.138687,
4.530000,0.124664,0.139038,
4.540000,0.124969,0.139313,
4.550000,0.125275,0.139679,
4.560000,0.125580,0.140015,
4.570000,0.125885,0.140335,
4.580000,0.126190,0.140686,
4.590000,0.126495,0.141037,
4.600000,0.126801,0.141403,
4.610000,0.127106,0.141708,
4.620000,0.127411,0.142059,
4.630000,0.127716,0.142349,
4.640000,0.128174,0.142929,
4.650000,0.128479,0.143250,
4.660000,0.128632,0.143539,
4.670000,0.129089,0.143967,
4.680000,0.129395,0.144272,
4.690000,0.129700,0.144608,
4.700000,0.130005,0.144913,
4.710000,0.130157,0.145218,
4.720000,0.130615,0.145569,
4.730000,0.130920,0.145935,
4.740000,0.131226,0.146286,
4.750000,0.131531,0.146637,
4.760000,0.131683,0.146820,
4.770000,0.131989,0.147125,
4.780000,0.132294,0.147491,
4.790000,0.132599,0.147858,
4.800000,0.132904,0.148163,
4.810000,0.133209,0.148499,
4.820000,0.133514,0.148865,
4.830000,0.133820,0.149200,
4.840000,0.134125,0.149506,
4.850000,0.134277,0.149796,
4.860000,0.134735,0.150162,
4.870000,0.134888,0.150497,
4.880000,0.135193,0.150848,
4.890000,0.135651,0.151199,
4.900000,0.135956,0.151581,
4.910000,0.136261,0.151886,
4.920000,0.136566,0.152222,
4.930000,0.136871,0.152542,
4.940000,0.137177,0.152939,
4.950000,0.137482,0.153229,
4.960000,0.137634,0.153534,
4.970000,0.138092,0.153915,
4.980000,0.138397,0.154282,
4.990000,0.138702,0.154602,
5.000000,0.139008,0.154999,
5.010000,0.139160,0.155075,
5.020000,0.139465,0.155457,
5.030000,0.139771,0.155777,
5.040000,0.139923,0.156143,
5.050000,0.140381,0.156433,
5.060000,0.140686,0.156784,
5.070000,0.140991,0.157120,
5.080000,0.141144,0.157440,
5.090000,0.141449,0.157791,
5.100000,0.141754,0.158157,
5.110000,0.142059,0.158478,
5.120000,0.142365,0.158813,
5.130000,0.142822,0.159180,
5.140000,0.143127,0.159531,
5.150000,0.143433,0.159882,
5.160000,0.143738,0.160217,
5.170000,0.144043,0.160492,
5.180000,0.144348,0.160873,
5.190000,0.144653,0.161194,
5.200000,0.144958,0.161560,
5.210000,0.145264,0.161896,
5.220000,0.145569,0.162247,
5.230000,0.145721,0.162567,
5.240000,0.146179,0.162903,
5.250000,0.146332,0.163254,
5.260000,0.146484,0.163422,
5.270000,0.146790,0.163742,
5.280000,0.147095,0.164093,
5.290000,0.147552,0.164459,
5.300000,0.147705,0.164749,
5.310000,0.148163,0.165115,
5.320000,0.148468,0.165451,
5.330000,0.148621,0.165771,
5.340000,0.148926,0.166153,
5.350000,0.149231,0.166458,
5.360000,0.149689,0.166840,
5.370000,0.149841,0.167114,
5.380000,0.150299,0.167511,
5.390000,0.150604,0.167847,
5.400000,0.150757,0.168137,
5.410000,0.151062,0.168472,
5.420000,0.151367,0.168823,
5.430000,0.151825,0.169189,
5.440000,0.152130,0.169540,
5.450000,0.152435,0.169846,
5.460000,0.152588,0.170212,
5.470000,0.152893,0.170532,
5.480000,0.153198,0.170883,
5.490000,0.153656,0.171204,
5.500000,0.153961,0.171616,
5.510000,0.154114,0.171738,
5.520000,0.154419,0.172089,
5.530000,0.154572,0.172394,
5.540000,0.154877,0.172729,
5.550000,0.155182,0.173050,
5.560000,0.155487,0.173416,
5.570000,0.155792,0.173782,
5.580000,0.156097,0.174118,
5.590000,0.156403,0.174408,
5.600000,0.156860,0.174774,
5.610000,0.157013,0.175079,
5.620000,0.157318,0.175430,
5.630000,0.157623,0.175751,
5.640000,0.157928,0.176147,
5.650000,0.158234,0.176468,
5.660000,0.158539,0.176804,
5.670000,0.158844,0.177139,
5.680000,0.159149,0.177475,
5.690000,0.159454,0.177826,
5.700000,0.159760,0.178162,
5.710000,0.160065,0.178467,
5.720000,0.160370,0.178818,
5.730000,0.160675,0.179169,
5.740000,0.160980,0.179504,
5.750000,0.161285,0.179871,
5.760000,0.161438,0.179993,
5.770000,0.161743,0.180359,
5.780000,0.162048,0.180725,
5.790000,0.162354,0.181030,
5.800000,0.162659,0.181366,
5.810000,0.162964,0.181702,
5.820000,0.163269,0.182053,
5.830000,0.163574,0.182434,
5.840000,0.163879,0.182739,
5.850000,0.164185,0.183029,
5.860000,0.164490,0.183426,
5.870000,0.164795,0.183762,
5.880000,0.165100,0.184082,
5.890000,0.165405,0.184464,
5.900000,0.165710,0.184753,
5.910000,0.166016,0.185104,
5.920000,0.166321,0.185425,
5.930000,0.166626,0.185730,
5.940000,0.166931,0.186096,
5.950000,0.167236,0.186447,
5.960000,0.167542,0.186783,
5.970000,0.167847,0.187088,
5.980000,0.168152,0.187469,
5.990000,0.168457,0.187775,
6.000000,0.168762,0.188187,
6.010000,0.168915,0.188293,
6.020000,0.169220,0.188629,
6.030000,0.169525,0.188995,
6.040000,0.169830,0.189346,
6.050000,0.170135,0.189636,
6.060000,0.170441,0.189972,
6.070000,0.170746,0.190338,
6.080000,0.171051,0.190704,
6.090000,0.171356,0.190964,
6.100000,0.171509,0.191345,
6.110000,0.171967,0.191681,
6.120000,0.172272,0.192047,
6.130000,0.172577,0.192337,
6.140000,0.172882,0.192703,
6.150000,0.173187,0.193039,
6.160000,0.173492,0.193420,
6.170000,0.173798,0.193680,
6.180000,0.174255,0.194244,
6.190000,0.174561,0.194565,
6.200000,0.174713,0.194885,
6.210000,0.175171,0.195236,
6.220000,0.175476,0.195602,
6.230000,0.175781,0.195892,
6.240000,0.176086,0.196274,
6.250000,0.176392,0.196609,
6.260000,0.176544,0.196777,
6.270000,0.176849,0.197083,
6.280000,0.177155,0.197418,
6.290000,0.177460,0.197784,
6.300000,0.177765,0.198135,
6.310000,0.177917,0.198441,
6.320000,0.178375,0.198776,
6.330000,0.178680,0.199112,
6.340000,0.178833,0.199463,
6.350000,0.179138,0.199768,
6.360000,0.179443,0.200150,
6.370000,0.179749,0.200470,
6.380000,0.180054,0.200836,
6.390000,0.180359,0.201141,
6.400000,0.180664,0.201523,
6.410000,0.180969,0.201828,
6.420000,0.181274,0.202148,
6.430000,0.181580,0.202499,
6.440000,0.182037,0.202850,
6.450000,0.182190,0.203140,
6.460000,0.182495,0.203506,
6.470000,0.182800,0.203873,
6.480000,0.183105,0.204193,
6.490000,0.183411,0.204514,
6.500000,0.183868,0.204910,
6.510000,0.183868,0.205017,
6.520000,0.184174,0.205368,
6.530000,0.184479,0.205704,
6.540000,0.184784,0.206039,
6.550000,0.185089,0.206406,
6.560000,0.185394,0.206741,
6.570000,0.185699,0.207062,
6.580000,0.186005,0.207367,
6.590000,0.186310,0.207764,
6.600000,0.186615,0.208084,
6.610000,0.186920,0.208405,
6.620000,0.187225,0.208771,
6.630000,0.187531,0.209061,
6.640000,0.187836,0.209427,
6.650000,0.188141,0.209763,
6.660000,0.188446,0.210114,
6.670000,0.188751,0.210449,
6.680000,0.189056,0.210785,
6.690000,0.189362,0.211105,
6.700000,0.189667,0.211487,
6.710000,0.189972,0.211807,
6.720000,0.190277,0.212112,
6.730000,0.190582,0.212433,
6.740000,0.190887,0.212814,
6.750000,0.191193,0.213165,
6.760000,0.191345,0.213287,
6.770000,0.191650,0.213654,
6.780000,0.191956,0.214020,
6.790000,0.192261,0.214355,
6.800000,0.192566,0.214706,
6.810000,0.192871,0.215012,
6.820000,0.193176,0.215393,
6.830000,0.193481,0.215668,
6.840000,0.193787,0.216064,
6.850000,0.194092,0.216400,
6.860000,0.194397,0.216736,
6.870000,0.194702,0.217041,
6.880000,0.195007,0.217392,
6.890000,0.195313,0.217758,
6.900000,0.195618,0.218063,
6.910000,0.195923,0.218369,
6.920000,0.196228,0.218750,
6.930000,0.196533,0.219086,
6.940000,0.196838,0.219437,
6.950000,0.197144,0.219772,
6.960000,0.197449,0.220108,
6.970000,0.197754,0.220444,
6.980000,0.198059,0.220810,
6.990000,0.198364,0.221115,
7.000000,0.198669,0.221497,
7.010000,0.198822,0.221634,
7.020000,0.199127,0.221970,
7.030000,0.199432,0.222290,
7.040000,0.199738,0.222672,
7.050000,0.200043,0.222992,
7.060000,0.200348,0.223328,
7.070000,0.200806,0.223679,
7.080000,0.201111,0.224030,
7.090000,0.201416,0.224365,
