Time(s),Voltage(V),Current(A),OpticalSignal
0.000000,-0.010376,-0.011414,
0.010000,-0.010529,-0.011658,
0.020000,-0.010223,-0.011322,
0.030000,-0.009918,-0.010956,
0.040000,-0.009613,-0.010620,
0.050000,-0.009308,-0.010315,
0.060000,-0.009003,-0.010010,
0.070000,-0.008698,-0.009674,
0.080000,-0.008392,-0.009308,
0.090000,-0.008087,-0.008972,
0.100000,-0.007782,-0.008606,
0.110000,-0.007477,-0.008362,
0.120000,-0.007172,-0.007935,
0.130000,-0.006866,-0.007629,
0.140000,-0.006561,-0.007263,
0.150000,-0.006256,-0.006927,
0.160000,-0.005951,-0.006622,
0.170000,-0.005646,-0.006317,
0.180000,-0.005341,-0.005951,
0.190000,-0.005035,-0.005615,
0.200000,-0.004730,-0.005310,
0.210000,-0.004425,-0.004944,
0.220000,-0.004120,-0.004578,
0.230000,-0.003815,-0.004303,
0.240000,-0.003510,-0.003906,
0.250000,-0.003204,-0.003571,
0.260000,-0.003052,-0.003448,
0.270000,-0.002747,-0.003082,
0.280000,-0.002441,-0.002777,
0.290000,-0.002136,-0.002411,
0.300000,-0.001831,-0.002136,
0.310000,-0.001526,-0.001770,
0.320000,-0.001221,-0.001404,
0.330000,-0.000916,-0.001068,
0.340000,-0.000610,-0.000793,
0.350000,-0.000305,-0.000427,
0.360000,0.000000,-0.000061,
0.370000,0.000305,0.000244,
0.380000,0.000610,0.000580,
0.390000,0.000916,0.000916,
0.400000,0.001221,0.001282,
0.410000,0.001526,0.001587,
0.420000,0.001831,0.001923,
0.430000,0.002136,0.002228,
0.440000,0.002441,0.002594,
0.450000,0.002747,0.002930,
0.460000,0.003052,0.003296,
0.470000,0.003357,0.003571,
0.480000,0.003662,0.003906,
0.490000,0.003967,0.004303,
0.500000,0.004272,0.004669,
0.510000,0.004425,0.004730,
0.520000,0.004730,0.005127,
0.530000,0.005035,0.005463,
0.540000,0.005188,0.005737,
0.550000,0.005646,0.006104,
0.560000,0.005951,0.006439,
0.570000,0.006104,0.006775,
0.580000,0.006409,0.007080,
0.590000,0.006866,0.007446,
0.600000,0.007019,0.007751,
0.610000,0.007324,0.008087,
0.620000,0.007782,0.008453,
0.630000,0.008087,0.008759,
0.640000,0.008240,0.009125,
0.650000,0.008698,0.009491,
0.660000,0.009003,0.009766,
0.670000,0.009155,0.010132,
0.680000,0.009613,0.010468,
0.690000,0.009766,0.010773,
0.700000,0.010071,0.011139,
0.710000,0.010376,0.011475,
0.720000,0.010834,0.011810,
0.730000,0.010986,0.012115,
0.740000,0.011444,0.012512,
0.750000,0.011749,0.012817,
0.760000,0.011902,0.012970,
0.770000,0.012207,0.013336,
0.780000,0.012512,0.013641,
0.790000,0.012665,0.013947,
0.800000,0.013123,0.014343,
0.810000,0.013275,0.014679,
0.820000,0.013580,0.014984,
0.830000,0.013885,0.015289,
0.840000,0.014343,0.015656,
0.850000,0.014496,0.015961,
0.860000,0.014954,0.016327,
0.870000,0.015106,0.016663,
0.880000,0.015564,0.016998,
0.890000,0.015717,0.017365,
0.900000,0.016022,0.017639,
0.910000,0.016327,0.018005,
0.920000,0.016785,0.018341,
0.930000,0.016937,0.018707,
0.940000,0.017242,0.019012,
0.950000,0.017548,0.019348,
0.960000,0.017853,0.019653,
0.970000,0.018311,0.020020,
0.980000,0.018463,0.020355,
0.990000,0.018768,0.020660,
1.000000,0.019226,0.021057,
1.010000,0.019226,0.021210,
1.020000,0.019531,0.021576,
1.030000,0.019836,0.021881,
1.040000,0.020142,0.022217,
1.050000,0.020599,0.022583,
1.060000,0.020752,0.022858,
1.070000,0.021210,0.023254,
1.080000,0.021362,0.023529,
1.090000,0.021667,0.023865,
1.100000,0.021973,0.024200,
1.110000,0.022278,0.024567,
1.120000,0.022583,0.024872,
1.130000,0.022888,0.025177,
1.140000,0.023193,0.025543,
1.150000,0.023499,0.025879,
1.160000,0.023804,0.026215,
1.170000,0.024109,0.026489,
1.180000,0.024414,0.026886,
1.190000,0.024719,0.027222,
1.200000,0.025024,0.027588,
1.210000,0.025330,0.027893,
1.220000,0.025635,0.028229,
1.230000,0.025940,0.028595,
1.240000,0.026245,0.028900,
1.250000,0.026550,0.029297,
1.260000,0.026703,0.029449,
1.270000,0.027008,0.029755,
1.280000,0.027313,0.030090,
1.290000,0.027618,0.030426,
1.300000,0.027924,0.030762,
1.310000,0.028229,0.031067,
1.320000,0.028534,0.031433,
1.330000,0.028839,0.031769,
1.340000,0.028992,0.032013,
1.350000,0.029449,0.032410,
1.360000,0.029755,0.032715,
1.370000,0.029907,0.033081,
1.380000,0.030365,0.033447,
1.390000,0.030670,0.033722,
1.400000,0.030975,0.034088,
1.410000,0.031281,0.034454,
1.420000,0.031586,0.034760,
1.430000,0.031891,0.035156,
1.440000,0.032196,0.035431,
1.450000,0.032349,0.035736,
1.460000,0.032806,0.036102,
1.470000,0.032959,0.036407,
1.480000,0.033417,0.036774,
1.490000,0.033722,0.037109,
1.500000,0.034027,0.037476,
1.510000,0.034027,0.037598,
1.520000,0.034485,0.037964,
1.530000,0.034790,0.038300,
1.540000,0.035095,0.038635,
1.550000,0.035553,0.039154,
1.560000,0.035858,0.039459,
1.570000,0.036163,0.039795,
1.580000,0.036469,0.040161,
1.590000,0.036774,0.040466,
1.600000,0.037079,0.040833,
1.610000,0.037231,0.041138,
1.620000,0.037537,0.041473,
1.630000,0.037994,0.041840,
1.640000,0.038300,0.042175,
1.650000,0.038605,0.042511,
1.660000,0.038757,0.042816,
1.670000,0.039063,0.043152,
1.680000,0.039368,0.043488,
1.690000,0.039825,0.043823,
1.700000,0.039978,0.044159,
1.710000,0.040283,0.044495,
1.720000,0.040741,0.044830,
1.730000,0.041046,0.045197,
1.740000,0.041351,0.045532,
1.750000,0.041656,0.045898,
1.760000,0.041656,0.046021,
1.770000,0.042114,0.046326,
1.780000,0.042267,0.046661,
1.790000,0.042725,0.046997,
1.800000,0.043030,0.047363,
1.810000,0.043335,0.047699,
1.820000,0.043640,0.048035,
1.830000,0.043793,0.048340,
1.840000,0.044250,0.048706,
1.850000,0.044403,0.049011,
1.860000,0.044708,0.049377,
1.870000,0.045166,0.049744,
1.880000,0.045319,0.050018,
1.890000,0.045624,0.050385,
1.900000,0.046082,0.050720,
1.910000,0.046234,0.051056,
1.920000,0.046539,0.051392,
1.930000,0.046844,0.051727,
1.940000,0.047150,0.052063,
1.950000,0.047455,0.052399,
1.960000,0.047913,0.052734,
1.970000,0.048065,0.053070,
1.980000,0.048370,0.053375,
1.990000,0.048676,0.053741,
2.000000,0.048981,0.054108,
2.010000,0.049133,0.054230,
2.020000,0.049438,0.054565,
2.030000,0.049744,0.054901,
2.040000,0.050049,0.055267,
2.050000,0.050354,0.055573,
2.060000,0.050659,0.055939,
2.070000,0.050964,0.056244,
2.080000,0.051270,0.056580,
2.090000,0.051575,0.056915,
2.100000,0.051880,0.057281,
2.110000,0.052185,0.057587,
2.120000,0.052490,0.057892,
2.130000,0.052795,0.058228,
2.140000,0.053101,0.058594,
2.150000,0.053406,0.058929,
2.160000,0.053711,0.059235,
2.170000,0.054016,0.059570,
2.180000,0.054321,0.059937,
2.190000,0.054626,0.060272,
2.200000,0.054932,0.060608,
2.210000,0.055237,0.060913,
2.220000,0.055542,0.061279,
2.230000,0.055847,0.061615,
2.240000,0.056152,0.061951,
2.250000,0.056610,0.062347,
2.260000,0.056610,0.062408,
2.270000,0.056915,0.062775,
2.280000,0.057220,0.063110,
2.290000,0.057526,0.063446,
2.300000,0.057831,0.063782,
2.310000,0.058136,0.064148,
2.320000,0.058441,0.064453,
2.330000,0.058746,0.064819,
2.340000,0.059052,0.065125,
2.350000,0.059357,0.065460,
2.360000,0.059662,0.065857,
2.370000,0.059967,0.066162,
2.380000,0.060272,0.066498,
2.390000,0.060577,0.066833,
2.400000,0.060883,0.067200,
2.410000,0.061188,0.067505,
2.420000,0.061493,0.067810,
2.430000,0.061798,0.068146,
2.440000,0.062103,0.068542,
2.450000,0.062408,0.068848,
2.460000,0.062714,0.069214,
2.470000,0.063019,0.069458,
2.480000,0.063324,0.069855,
2.490000,0.063629,0.070190,
2.500000,0.063934,0.070557,
2.510000,0.064087,0.070679,
2.520000,0.064392,0.071014,
2.530000,0.064697,0.071350,
2.540000,0.065002,0.071686,
2.550000,0.065308,0.072021,
2.560000,0.065613,0.072327,
2.570000,0.065918,0.072693,
2.580000,0.066223,0.073059,
2.590000,0.066528,0.073334,
2.600000,0.066833,0.073700,
2.610000,0.067139,0.074036,
2.620000,0.067444,0.074402,
2.630000,0.067596,0.074707,
2.640000,0.067902,0.075043,
2.650000,0.068359,0.075378,
2.660000,0.068665,0.075775,
2.670000,0.068970,0.076080,
2.680000,0.069275,0.076416,
2.690000,0.069580,0.076721,
2.700000,0.069885,0.077057,
2.710000,0.070190,0.077393,
2.720000,0.070496,0.077728,
2.730000,0.070648,0.078033,
2.740000,0.070953,0.078369,
2.750000,0.071411,0.078766,
2.760000,0.071564,0.078918,
2.770000,0.071716,0.079254,
2.780000,0.072021,0.079590,
2.790000,0.072479,0.079895,
2.800000,0.072784,0.080231,
2.810000,0.072937,0.080566,
2.820000,0.073395,0.080933,
2.830000,0.073700,0.081299,
2.840000,0.073853,0.081573,
2.850000,0.074310,0.081940,
2.860000,0.074615,0.082245,
2.870000,0.074768,0.082581,
2.880000,0.075226,0.082916,
2.890000,0.075378,0.083252,
2.900000,0.075684,0.083557,
2.910000,0.076141,0.083954,
2.920000,0.076447,0.084290,
2.930000,0.076599,0.084625,
2.940000,0.077057,0.084930,
2.950000,0.077209,0.085266,
2.960000,0.077515,0.085602,
2.970000,0.077820,0.085968,
2.980000,0.078278,0.086243,
2.990000,0.078583,0.086609,
3.000000,0.078888,0.087006,
3.010000,0.078888,0.087128,
3.020000,0.079346,0.087494,
3.030000,0.079651,0.087830,
3.040000,0.079803,0.088135,
3.050000,0.080109,0.088470,
3.060000,0.080414,0.088806,
3.070000,0.080719,0.089111,
3.080000,0.081024,0.089478,
3.090000,0.081482,0.089966,
3.100000,0.081787,0.090302,
3.110000,0.082092,0.090668,
3.120000,0.082397,0.090973,
3.130000,0.082703,0.091339,
3.140000,0.083160,0.091675,
3.150000,0.083313,0.091980,
3.160000,0.083618,0.092346,
3.170000,0.083923,0.092651,
3.180000,0.084229,0.093018,
3.190000,0.084686,0.093384,
3.200000,0.084991,0.093689,
3.210000,0.085297,0.094025,
3.220000,0.085449,0.094330,
3.230000,0.085754,0.094696,
3.240000,0.086060,0.094971,
3.250000,0.086517,0.095398,
3.260000,0.086517,0.095520,
3.270000,0.086823,0.095856,
3.280000,0.087128,0.096161,
3.290000,0.087433,0.096558,
3.300000,0.087738,0.096863,
3.310000,0.088043,0.097168,
3.320000,0.088348,0.097534,
3.330000,0.088654,0.097870,
3.340000,0.088959,0.098175,
3.350000,0.089264,0.098572,
3.360000,0.089569,0.098877,
3.370000,0.089874,0.099182,
3.380000,0.090179,0.099518,
3.390000,0.090485,0.099915,
3.400000,0.090790,0.100220,
3.410000,0.091095,0.100525,
3.420000,0.091400,0.100861,
3.430000,0.091705,0.101196,
3.440000,0.092010,0.101501,
3.450000,0.092316,0.101898,
3.460000,0.092621,0.102203,
3.470000,0.092926,0.102539,
3.480000,0.093231,0.102844,
3.490000,0.093536,0.103210,
3.500000,0.093842,0.103607,
3.510000,0.093994,0.103729,
3.520000,0.094147,0.104034,
3.530000,0.094604,0.104401,
3.540000,0.094910,0.104767,
3.550000,0.095215,0.105072,
3.560000,0.095520,0.105408,
3.570000,0.095825,0.105743,
3.580000,0.096130,0.106079,
3.590000,0.096436,0.106415,
3.600000,0.096741,0.106750,
3.610000,0.097046,0.107056,
3.620000,0.097351,0.107452,
3.630000,0.097656,0.107788,
3.640000,0.097961,0.108093,
3.650000,0.098114,0.108429,
3.660000,0.098572,0.108734,
3.670000,0.098724,0.109100,
3.680000,0.099182,0.109436,
3.690000,0.099487,0.109741,
3.700000,0.099792,0.110107,
3.710000,0.100098,0.110443,
3.720000,0.100250,0.110718,
3.730000,0.100708,0.111084,
3.740000,0.101013,0.111450,
3.750000,0.101318,0.111847,
3.760000,0.101471,0.111938,
3.770000,0.101776,0.112274,
3.780000,0.102081,0.112579,
3.790000,0.102386,0.112946,
3.800000,0.102539,0.113281,
3.810000,0.102844,0.113647,
3.820000,0.103149,0.113953,
3.830000,0.103607,0.114288,
3.840000,0.103912,0.114624,
3.850000,0.104065,0.114960,
3.860000,0.104370,0.115295,
3.870000,0.104675,0.115601,
3.880000,0.104980,0.115936,
3.890000,0.105438,0.116302,
3.900000,0.105591,0.116608,
3.910000,0.105896,0.116943,
3.920000,0.106201,0.117279,
3.930000,0.106506,0.117615,
3.940000,0.106812,0.117950,
3.950000,0.107117,0.118286,
3.960000,0.107574,0.118622,
3.970000,0.107880,0.118988,
3.980000,0.108185,0.119354,
3.990000,0.108490,0.119659,
4.000000,0.108795,0.120026,
4.010000,0.108795,0.120178,
4.020000,0.109100,0.120483,
4.030000,0.109406,0.120789,
4.040000,0.109711,0.121124,
4.050000,0.110016,0.121460,
4.060000,0.110321,0.121796,
4.070000,0.110626,0.122131,
4.080000,0.111084,0.122498,
4.090000,0.111237,0.122833,
4.100000,0.111542,0.123169,
4.110000,0.111847,0.123505,
4.120000,0.112152,0.123840,
4.130000,0.112457,0.124115,
4.140000,0.112762,0.124451,
4.150000,0.113068,0.124847,
4.160000,0.113373,0.125183,
4.170000,0.113678,0.125519,
4.180000,0.113983,0.125824,
4.190000,0.114288,0.126160,
4.200000,0.114594,0.126495,
4.210000,0.114899,0.126862,
4.220000,0.115204,0.127167,
4.230000,0.115509,0.127502,
4.240000,0.115814,0.127869,
4.250000,0.116272,0.128265,
4.260000,0.116272,0.128357,
4.270000,0.116577,0.128693,
4.280000,0.116882,0.129028,
4.290000,0.117188,0.129364,
4.300000,0.117493,0.129700,
4.310000,0.117798,0.130005,
4.320000,0.118103,0.130341,
4.330000,0.118408,0.130676,
4.340000,0.118713,0.130981,
4.350000,0.119019,0.131348,
4.360000,0.119324,0.131714,
4.370000,0.119629,0.132019,
4.380000,0.119934,0.132324,
4.390000,0.120239,0.132690,
4.400000,0.120544,0.133026,
4.410000,0.120850,0.133392,
4.420000,0.121155,0.133698,
4.430000,0.121460,0.134064,
4.440000,0.121765,0.134338,
4.450000,0.122070,0.134735,
4.460000,0.122375,0.135040,
4.470000,0.122681,0.135376,
4.480000,0.122986,0.135773,
4.490000,0.123291,0.136078,
4.500000,0.123596,0.136444,
4.510000,0.123749,0.136597,
4.520000,0.124054,0.136902,
4.530000,0.124359,0.137268,
4.540000,0.124664,0.137573,
4.550000,0.124969,0.137909,
4.560000,0.125275,0.138245,
4.570000,0.125580,0.138580,
4.580000,0.125885,0.138916,
4.590000,0.126190,0.139252,
4.600000,0.126495,0.139557,
4.610000,0.126801,0.139923,
4.620000,0.127106,0.140259,
4.630000,0.127411,0.140594,
4.640000,0.127869,0.141052,
4.650000,0.128174,0.141449,
4.660000,0.128479,0.141785,
4.670000,0.128632,0.142090,
4.680000,0.129089,0.142456,
4.690000,0.129395,0.142792,
4.700000,0.129700,0.143097,
4.710000,0.130005,0.143463,
4.720000,0.130310,0.143768,
4.730000,0.130615,0.144135,
4.740000,0.130920,0.144470,
4.750000,0.131226,0.144836,
4.760000,0.131378,0.144928,
4.770000,0.131683,0.145325,
4.780000,0.131989,0.145630,
4.790000,0.132294,0.145966,
4.800000,0.132599,0.146301,
4.810000,0.132904,0.146637,
4.820000,0.133209,0.146973,
4.830000,0.133514,0.147278,
4.840000,0.133820,0.147644,
4.850000,0.134125,0.148010,
4.860000,0.134430,0.148315,
4.870000,0.134735,0.148651,
4.880000,0.135040,0.148956,
4.890000,0.135193,0.149323,
4.900000,0.135498,0.149658,
4.910000,0.135956,0.150024,
4.920000,0.136261,0.150360,
4.930000,0.136566,0.150665,
4.940000,0.136871,0.151031,
4.950000,0.137024,0.151306,
4.960000,0.137482,0.151703,
4.970000,0.137787,0.152008,
4.980000,0.137939,0.152374,
4.990000,0.138245,0.152679,
5.000000,0.138550,0.153046,
5.010000,0.138702,0.153137,
5.020000,0.139008,0.153503,
5.030000,0.139313,0.153809,
5.040000,0.139618,0.154144,
5.050000,0.139923,0.154510,
5.060000,0.140381,0.154877,
5.070000,0.140533,0.155182,
5.080000,0.140839,0.155518,
5.090000,0.141144,0.155853,
5.100000,0.141449,0.156189,
5.110000,0.141754,0.156494,
5.120000,0.142059,0.156891,
5.130000,0.142365,0.157196,
5.140000,0.142670,0.157562,
5.150000,0.142975,0.157867,
5.160000,0.143280,0.158203,
5.170000,0.143585,0.158539,
5.180000,0.143890,0.158905,
5.190000,0.144196,0.159210,
5.200000,0.144501,0.159515,
5.210000,0.144806,0.159912,
5.220000,0.145111,0.160217,
5.230000,0.145416,0.160553,
5.240000,0.145721,0.160858,
5.250000,0.146179,0.161285,
5.260000,0.146179,0.161407,
5.270000,0.146484,0.161713,
5.280000,0.146790,0.162048,
5.290000,0.147095,0.162415,
5.300000,0.147400,0.162750,
5.310000,0.147705,0.163086,
5.320000,0.148010,0.163452,
5.330000,0.148315,0.163727,
5.340000,0.148621,0.164063,
5.350000,0.148926,0.164429,
5.360000,0.149231,0.164764,
5.370000,0.149536,0.165100,
5.380000,0.149841,0.165436,
5.390000,0.150146,0.165741,
5.400000,0.150452,0.166138,
5.410000,0.150757,0.166443,
5.420000,0.151062,0.166748,
5.430000,0.151367,0.167084,
5.440000,0.151672,0.167419,
5.450000,0.151978,0.167755,
5.460000,0.152283,0.168091,
5.470000,0.152588,0.168427,
5.480000,0.152893,0.168732,
5.490000,0.153198,0.169067,
5.500000,0.153503,0.169464,
5.510000,0.153656,0.169617,
5.520000,0.153961,0.169922,
5.530000,0.154266,0.170288,
5.540000,0.154572,0.170624,
5.550000,0.154877,0.170929,
5.560000,0.155182,0.171295,
5.570000,0.155487,0.171661,
5.580000,0.155792,0.171936,
5.590000,0.156097,0.172272,
5.600000,0.156403,0.172607,
5.610000,0.156708,0.173004,
5.620000,0.157013,0.173309,
5.630000,0.157318,0.173645,
5.640000,0.157623,0.173981,
5.650000,0.157928,0.174316,
5.660000,0.158234,0.174652,
5.670000,0.158539,0.175018,
5.680000,0.158844,0.175323,
5.690000,0.159149,0.175659,
5.700000,0.159454,0.175995,
5.710000,0.159760,0.176331,
5.720000,0.160065,0.176666,
5.730000,0.160370,0.176941,
5.740000,0.160675,0.177338,
5.750000,0.160980,0.177704,
5.760000,0.161133,0.177826,
5.770000,0.161438,0.178192,
5.780000,0.161743,0.178528,
5.790000,0.162048,0.178833,
5.800000,0.162354,0.179199,
5.810000,0.162659,0.179535,
5.820000,0.162964,0.179871,
5.830000,0.163269,0.180176,
5.840000,0.163574,0.180542,
5.850000,0.163879,0.180878,
5.860000,0.164185,0.181213,
5.870000,0.164490,0.181519,
5.880000,0.164795,0.181854,
5.890000,0.165100,0.182220,
5.900000,0.165405,0.182587,
5.910000,0.165710,0.182831,
5.920000,0.166016,0.183197,
5.930000,0.166321,0.183502,
5.940000,0.166626,0.183838,
5.950000,0.166779,0.184204,
5.960000,0.167236,0.184509,
5.970000,0.167542,0.184875,
5.980000,0.167847,0.185242,
5.990000,0.168152,0.185547,
6.000000,0.168304,0.185913,
6.010000,0.168610,0.186066,
6.020000,0.168915,0.186340,
6.030000,0.169220,0.186737,
6.040000,0.169525,0.187042,
6.050000,0.169830,0.187408,
6.060000,0.170135,0.187714,
6.070000,0.170288,0.188019,
6.080000,0.170746,0.188385,
6.090000,0.170898,0.188690,
6.100000,0.171204,0.189087,
6.110000,0.171509,0.189392,
6.120000,0.171967,0.189697,
6.130000,0.172119,0.190033,
6.140000,0.172424,0.190338,
6.150000,0.172882,0.190796,
6.160000,0.173187,0.191071,
6.170000,0.173340,0.191376,
6.180000,0.173950,0.191925,
6.190000,0.174255,0.192322,
6.200000,0.174561,0.192596,
6.210000,0.174866,0.192932,
6.220000,0.175171,0.193298,
6.230000,0.175476,0.193604,
6.240000,0.175781,0.193939,
6.250000,0.176086,0.194305,
6.260000,0.176239,0.194427,
6.270000,0.176392,0.194733,
6.280000,0.176697,0.195129,
6.290000,0.177155,0.195465,
6.300000,0.177307,0.195770,
6.310000,0.177612,0.196106,
6.320000,0.178070,0.196442,
6.330000,0.178375,0.196777,
6.340000,0.178528,0.197144,
6.350000,0.178833,0.197449,
6.360000,0.179291,0.197784,
6.370000,0.179443,0.198151,
6.380000,0.179749,0.198456,
6.390000,0.180206,0.198761,
6.400000,0.180359,0.199127,
6.410000,0.180664,0.199463,
6.420000,0.181122,0.199829,
6.430000,0.181274,0.200134,
6.440000,0.181732,0.200500,
6.450000,0.181885,0.200806,
6.460000,0.182190,0.201141,
6.470000,0.182495,0.201477,
6.480000,0.182953,0.201813,
6.490000,0.183258,0.202179,
6.500000,0.183411,0.202515,
6.510000,0.183563,0.202698,
6.520000,0.183868,0.203003,
6.530000,0.184174,0.203308,
6.540000,0.184479,0.203644,
6.550000,0.184784,0.204010,
6.560000,0.185089,0.204346,
6.570000,0.185394,0.204651,
6.580000,0.185699,0.204956,
6.590000,0.186005,0.205383,
6.600000,0.186310,0.205658,
6.610000,0.186615,0.206024,
6.620000,0.186920,0.206360,
6.630000,0.187225,0.206665,
6.640000,0.187531,0.207001,
6.650000,0.187836,0.207336,
6.660000,0.188141,0.207703,
6.670000,0.188446,0.208008,
6.680000,0.188751,0.208344,
6.690000,0.189056,0.208679,
6.700000,0.189362,0.209015,
6.710000,0.189667,0.209381,
6.720000,0.189972,0.209717,
6.730000,0.190277,0.210083,
6.740000,0.190582,0.210388,
6.750000,0.190887,0.210754,
6.760000,0.191040,0.210846,
6.770000,0.191345,0.211212,
6.780000,0.191650,0.211578,
6.790000,0.191956,0.211884,
6.800000,0.192261,0.212219,
6.810000,0.192566,0.212555,
6.820000,0.192871,0.212891,
6.830000,0.193176,0.213226,
6.840000,0.193481,0.213562,
6.850000,0.193787,0.213898,
6.860000,0.194092,0.214233,
6.870000,0.194397,0.214569,
6.880000,0.194702,0.214905,
6.890000,0.195007,0.215240,
6.900000,0.195313,0.215607,
6.910000,0.195618,0.215881,
6.920000,0.195923,0.216248,
6.930000,0.196228,0.216583,
6.940000,0.196533,0.216919,
6.950000,0.196686,0.217224,
6.960000,0.197144,0.217560,
6.970000,0.197449,0.217926,
6.980000,0.197754,0.218231,
6.990000,0.198059,0.218597,
7.000000,0.198364,0.218933,
7.010000,0.198517,0.219116,
7.020000,0.198822,0.219452,
7.030000,0.199127,0.219727,
7.040000,0.199432,0.220123,
7.050000,0.199738,0.220459,
7.060000,0.200043,0.220764,
7.070000,0.200348,0.221069,
7.080000,0.200653,0.221466,
7.090000,0.201111,0.221771,
